Wavelength (nm)	Cross section (cm2)
2.1009e+02	2.1259e-18
2.1021e+02	2.1205e-18
2.1032e+02	2.1156e-18
2.1044e+02	2.1102e-18
2.1056e+02	2.1048e-18
2.1068e+02	2.0994e-18
2.1079e+02	2.0945e-18
2.1091e+02	2.0891e-18
2.1103e+02	2.0836e-18
2.1114e+02	2.0787e-18
2.1126e+02	2.0733e-18
2.1138e+02	2.0679e-18
2.1149e+02	2.0629e-18
2.1161e+02	2.0575e-18
2.1173e+02	2.0522e-18
2.1185e+02	2.0468e-18
2.1196e+02	2.0418e-18
2.1208e+02	2.0356e-18
2.1220e+02	2.0290e-18
2.1231e+02	2.0229e-18
2.1243e+02	2.0163e-18
2.1255e+02	2.0097e-18
2.1266e+02	2.0037e-18
2.1278e+02	1.9971e-18
2.1290e+02	1.9905e-18
2.1302e+02	1.9839e-18
2.1313e+02	1.9779e-18
2.1325e+02	1.9713e-18
2.1337e+02	1.9646e-18
2.1348e+02	1.9586e-18
2.1360e+02	1.9520e-18
2.1372e+02	1.9454e-18
2.1383e+02	1.9393e-18
2.1395e+02	1.9328e-18
2.1407e+02	1.9251e-18
2.1418e+02	1.9174e-18
2.1430e+02	1.9090e-18
2.1442e+02	1.9006e-18
2.1453e+02	1.8929e-18
2.1465e+02	1.8845e-18
2.1477e+02	1.8761e-18
2.1488e+02	1.8684e-18
2.1500e+02	1.8600e-18
2.1512e+02	1.8516e-18
2.1524e+02	1.8432e-18
2.1535e+02	1.8355e-18
2.1547e+02	1.8271e-18
2.1559e+02	1.8187e-18
2.1570e+02	1.8110e-18
2.1582e+02	1.8026e-18
2.1594e+02	1.7942e-18
2.1605e+02	1.7862e-18
2.1617e+02	1.7773e-18
2.1629e+02	1.7683e-18
2.1640e+02	1.7600e-18
2.1652e+02	1.7510e-18
2.1664e+02	1.7420e-18
2.1675e+02	1.7338e-18
2.1687e+02	1.7247e-18
2.1699e+02	1.7157e-18
2.1710e+02	1.7075e-18
2.1722e+02	1.6985e-18
2.1734e+02	1.6895e-18
2.1745e+02	1.6813e-18
2.1757e+02	1.6723e-18
2.1769e+02	1.6633e-18
2.1780e+02	1.6550e-18
2.1792e+02	1.6460e-18
2.1803e+02	1.6379e-18
2.1815e+02	1.6295e-18
2.1827e+02	1.6211e-18
2.1838e+02	1.6134e-18
2.1850e+02	1.6050e-18
2.1862e+02	1.5966e-18
2.1873e+02	1.5889e-18
2.1885e+02	1.5805e-18
2.1897e+02	1.5721e-18
2.1908e+02	1.5644e-18
2.1920e+02	1.5560e-18
2.1932e+02	1.5476e-18
2.1943e+02	1.5399e-18
2.1955e+02	1.5315e-18
2.1967e+02	1.5231e-18
2.1978e+02	1.5154e-18
2.1990e+02	1.5070e-18
2.2002e+02	1.4985e-18
2.2013e+02	1.4903e-18
2.2025e+02	1.4812e-18
2.2036e+02	1.4730e-18
2.2048e+02	1.4640e-18
2.2060e+02	1.4550e-18
2.2071e+02	1.4467e-18
2.2083e+02	1.4377e-18
2.2095e+02	1.4288e-18
2.2106e+02	1.4205e-18
2.2118e+02	1.4115e-18
2.2130e+02	1.4025e-18
2.2141e+02	1.3943e-18
2.2153e+02	1.3852e-18
2.2164e+02	1.3770e-18
2.2176e+02	1.3680e-18
2.2188e+02	1.3590e-18
2.2199e+02	1.3507e-18
2.2211e+02	1.3423e-18
2.2223e+02	1.3339e-18
2.2234e+02	1.3262e-18
2.2246e+02	1.3178e-18
2.2257e+02	1.3101e-18
2.2269e+02	1.3017e-18
2.2281e+02	1.2933e-18
2.2292e+02	1.2856e-18
2.2304e+02	1.2772e-18
2.2316e+02	1.2688e-18
2.2327e+02	1.2611e-18
2.2339e+02	1.2527e-18
2.2350e+02	1.2450e-18
2.2362e+02	1.2366e-18
2.2374e+02	1.2282e-18
2.2385e+02	1.2205e-18
2.2397e+02	1.2121e-18
2.2408e+02	1.2048e-18
2.2420e+02	1.1970e-18
2.2432e+02	1.1892e-18
2.2443e+02	1.1820e-18
2.2455e+02	1.1742e-18
2.2466e+02	1.1671e-18
2.2478e+02	1.1593e-18
2.2490e+02	1.1515e-18
2.2501e+02	1.1444e-18
2.2513e+02	1.1366e-18
2.2525e+02	1.1288e-18
2.2536e+02	1.1216e-18
2.2548e+02	1.1138e-18
2.2559e+02	1.1066e-18
2.2571e+02	1.0988e-18
2.2583e+02	1.0910e-18
2.2594e+02	1.0839e-18
2.2606e+02	1.0759e-18
2.2617e+02	1.0685e-18
2.2629e+02	1.0604e-18
2.2641e+02	1.0523e-18
2.2652e+02	1.0449e-18
2.2664e+02	1.0368e-18
2.2675e+02	1.0294e-18
2.2687e+02	1.0213e-18
2.2698e+02	1.0139e-18
2.2710e+02	1.0058e-18
2.2722e+02	9.9765e-19
2.2733e+02	9.9022e-19
2.2745e+02	9.8213e-19
2.2756e+02	9.7470e-19
2.2768e+02	9.6660e-19
2.2780e+02	9.5850e-19
2.2791e+02	9.5108e-19
2.2803e+02	9.4350e-19
2.2814e+02	9.3800e-19
2.2826e+02	9.3200e-19
2.2838e+02	9.2600e-19
2.2849e+02	9.2050e-19
2.2861e+02	9.1450e-19
2.2872e+02	9.0900e-19
2.2884e+02	9.0300e-19
2.2895e+02	8.9750e-19
2.2907e+02	8.9150e-19
2.2919e+02	8.8550e-19
2.2930e+02	8.8000e-19
2.2942e+02	8.7400e-19
2.2953e+02	8.6850e-19
2.2965e+02	8.6250e-19
2.2976e+02	8.5700e-19
2.2988e+02	8.5100e-19
2.3000e+02	8.4500e-19
2.3011e+02	8.3922e-19
2.3023e+02	8.3293e-19
2.3034e+02	8.2715e-19
2.3046e+02	8.2085e-19
2.3057e+02	8.1508e-19
2.3069e+02	8.0878e-19
2.3081e+02	8.0247e-19
2.3092e+02	7.9670e-19
2.3104e+02	7.9040e-19
2.3115e+02	7.8462e-19
2.3127e+02	7.7832e-19
2.3138e+02	7.7255e-19
2.3150e+02	7.6625e-19
2.3161e+02	7.6047e-19
2.3173e+02	7.5418e-19
2.3185e+02	7.4788e-19
2.3196e+02	7.4210e-19
2.3208e+02	7.3680e-19
2.3219e+02	7.3240e-19
2.3231e+02	7.2760e-19
2.3242e+02	7.2320e-19
2.3254e+02	7.1840e-19
2.3265e+02	7.1400e-19
2.3277e+02	7.0920e-19
2.3289e+02	7.0440e-19
2.3300e+02	7.0000e-19
2.3312e+02	6.9520e-19
2.3323e+02	6.9080e-19
2.3335e+02	6.8600e-19
2.3346e+02	6.8160e-19
2.3358e+02	6.7680e-19
2.3369e+02	6.7240e-19
2.3381e+02	6.6760e-19
2.3392e+02	6.6320e-19
2.3404e+02	6.5840e-19
2.3416e+02	6.5360e-19
2.3427e+02	6.4920e-19
2.3439e+02	6.4440e-19
2.3450e+02	6.4000e-19
2.3462e+02	6.3520e-19
2.3473e+02	6.3080e-19
2.3485e+02	6.2600e-19
2.3496e+02	6.2160e-19
2.3508e+02	6.1680e-19
2.3519e+02	6.1240e-19
2.3531e+02	6.0760e-19
2.3542e+02	6.0320e-19
2.3554e+02	5.9840e-19
2.3565e+02	5.9400e-19
2.3577e+02	5.8920e-19
2.3589e+02	5.8440e-19
2.3600e+02	5.8000e-19
2.3612e+02	5.7520e-19
2.3623e+02	5.7080e-19
2.3635e+02	5.6600e-19
2.3646e+02	5.6160e-19
2.3658e+02	5.5680e-19
2.3669e+02	5.5240e-19
2.3681e+02	5.4760e-19
2.3692e+02	5.4320e-19
2.3704e+02	5.3840e-19
2.3715e+02	5.3400e-19
2.3727e+02	5.2920e-19
2.3738e+02	5.2480e-19
2.3750e+02	5.2000e-19
2.3761e+02	5.1560e-19
2.3773e+02	5.1080e-19
2.3784e+02	5.0640e-19
2.3796e+02	5.0160e-19
2.3807e+02	4.9755e-19
2.3819e+02	4.9335e-19
2.3830e+02	4.8950e-19
2.3842e+02	4.8530e-19
2.3853e+02	4.8145e-19
2.3865e+02	4.7725e-19
2.3876e+02	4.7340e-19
2.3888e+02	4.6920e-19
2.3899e+02	4.6535e-19
2.3911e+02	4.6115e-19
2.3922e+02	4.5730e-19
2.3934e+02	4.5310e-19
2.3945e+02	4.4925e-19
2.3957e+02	4.4505e-19
2.3968e+02	4.4120e-19
2.3980e+02	4.3700e-19
2.3991e+02	4.3315e-19
2.4003e+02	4.2910e-19
2.4014e+02	4.2580e-19
2.4026e+02	4.2220e-19
2.4037e+02	4.1890e-19
2.4049e+02	4.1530e-19
2.4060e+02	4.1200e-19
2.4072e+02	4.0840e-19
2.4083e+02	4.0510e-19
2.4095e+02	4.0150e-19
2.4106e+02	3.9820e-19
2.4118e+02	3.9460e-19
2.4129e+02	3.9130e-19
2.4141e+02	3.8770e-19
2.4152e+02	3.8440e-19
2.4164e+02	3.8080e-19
2.4175e+02	3.7750e-19
2.4187e+02	3.7390e-19
2.4198e+02	3.7060e-19
2.4210e+02	3.6750e-19
2.4221e+02	3.6475e-19
2.4233e+02	3.6175e-19
2.4244e+02	3.5900e-19
2.4256e+02	3.5600e-19
2.4267e+02	3.5325e-19
2.4279e+02	3.5025e-19
2.4290e+02	3.4750e-19
2.4302e+02	3.4450e-19
2.4313e+02	3.4175e-19
2.4325e+02	3.3875e-19
2.4336e+02	3.3600e-19
2.4347e+02	3.3325e-19
2.4359e+02	3.3025e-19
2.4370e+02	3.2750e-19
2.4382e+02	3.2450e-19
2.4393e+02	3.2175e-19
2.4405e+02	3.1887e-19
2.4416e+02	3.1640e-19
2.4428e+02	3.1370e-19
2.4439e+02	3.1123e-19
2.4451e+02	3.0853e-19
2.4462e+02	3.0605e-19
2.4474e+02	3.0335e-19
2.4485e+02	3.0088e-19
2.4497e+02	2.9818e-19
2.4508e+02	2.9570e-19
2.4519e+02	2.9323e-19
2.4531e+02	2.9052e-19
2.4542e+02	2.8805e-19
2.4554e+02	2.8535e-19
2.4565e+02	2.8287e-19
2.4577e+02	2.8017e-19
2.4588e+02	2.7770e-19
2.4600e+02	2.7500e-19
2.4611e+02	2.7280e-19
2.4623e+02	2.7040e-19
2.4634e+02	2.6820e-19
2.4645e+02	2.6600e-19
2.4657e+02	2.6360e-19
2.4668e+02	2.6140e-19
2.4680e+02	2.5900e-19
2.4691e+02	2.5680e-19
2.4703e+02	2.5440e-19
2.4714e+02	2.5220e-19
2.4726e+02	2.4980e-19
2.4737e+02	2.4760e-19
2.4749e+02	2.4520e-19
2.4760e+02	2.4300e-19
2.4771e+02	2.4080e-19
2.4783e+02	2.3840e-19
2.4794e+02	2.3620e-19
2.4806e+02	2.3395e-19
2.4817e+02	2.3203e-19
2.4829e+02	2.2993e-19
2.4840e+02	2.2800e-19
2.4851e+02	2.2608e-19
2.4863e+02	2.2398e-19
2.4874e+02	2.2205e-19
2.4886e+02	2.1995e-19
2.4897e+02	2.1803e-19
2.4909e+02	2.1592e-19
2.4920e+02	2.1400e-19
2.4931e+02	2.1207e-19
2.4943e+02	2.0997e-19
2.4954e+02	2.0805e-19
2.4966e+02	2.0595e-19
2.4977e+02	2.0402e-19
2.4989e+02	2.0193e-19
2.5000e+02	2.0000e-19
2.5011e+02	1.9835e-19
2.5023e+02	1.9655e-19
2.5034e+02	1.9490e-19
2.5046e+02	1.9310e-19
2.5057e+02	1.9145e-19
2.5069e+02	1.8965e-19
2.5080e+02	1.8800e-19
2.5091e+02	1.8635e-19
2.5103e+02	1.8455e-19
2.5114e+02	1.8290e-19
2.5126e+02	1.8110e-19
2.5137e+02	1.7945e-19
2.5149e+02	1.7765e-19
2.5160e+02	1.7600e-19
2.5171e+02	1.7435e-19
2.5183e+02	1.7255e-19
2.5194e+02	1.7090e-19
2.5206e+02	1.6925e-19
2.5217e+02	1.6788e-19
2.5228e+02	1.6650e-19
2.5240e+02	1.6500e-19
2.5251e+02	1.6363e-19
2.5263e+02	1.6213e-19
2.5274e+02	1.6075e-19
2.5285e+02	1.5938e-19
2.5297e+02	1.5788e-19
2.5308e+02	1.5650e-19
2.5320e+02	1.5500e-19
2.5331e+02	1.5362e-19
2.5342e+02	1.5225e-19
2.5354e+02	1.5075e-19
2.5365e+02	1.4937e-19
2.5377e+02	1.4787e-19
2.5388e+02	1.4650e-19
2.5399e+02	1.4512e-19
2.5411e+02	1.4379e-19
2.5422e+02	1.4258e-19
2.5434e+02	1.4126e-19
2.5445e+02	1.4005e-19
2.5456e+02	1.3884e-19
2.5468e+02	1.3752e-19
2.5479e+02	1.3631e-19
2.5491e+02	1.3499e-19
2.5502e+02	1.3378e-19
2.5513e+02	1.3257e-19
2.5525e+02	1.3125e-19
2.5536e+02	1.3004e-19
2.5547e+02	1.2883e-19
2.5559e+02	1.2751e-19
2.5570e+02	1.2630e-19
2.5582e+02	1.2498e-19
2.5593e+02	1.2377e-19
2.5604e+02	1.2260e-19
2.5616e+02	1.2140e-19
2.5627e+02	1.2030e-19
2.5639e+02	1.1910e-19
2.5650e+02	1.1800e-19
2.5661e+02	1.1690e-19
2.5673e+02	1.1570e-19
2.5684e+02	1.1460e-19
2.5695e+02	1.1350e-19
2.5707e+02	1.1230e-19
2.5718e+02	1.1120e-19
2.5730e+02	1.1000e-19
2.5741e+02	1.0890e-19
2.5752e+02	1.0780e-19
2.5764e+02	1.0660e-19
2.5775e+02	1.0550e-19
2.5786e+02	1.0440e-19
2.5798e+02	1.0320e-19
2.5809e+02	1.0224e-19
2.5820e+02	1.0130e-19
2.5832e+02	1.0028e-19
2.5843e+02	9.9345e-20
2.5855e+02	9.8325e-20
2.5866e+02	9.7390e-20
2.5877e+02	9.6455e-20
2.5889e+02	9.5435e-20
2.5900e+02	9.4500e-20
2.5911e+02	9.3565e-20
2.5923e+02	9.2545e-20
2.5934e+02	9.1610e-20
2.5945e+02	9.0675e-20
2.5957e+02	8.9655e-20
2.5968e+02	8.8720e-20
2.5980e+02	8.7700e-20
2.5991e+02	8.6765e-20
2.6002e+02	8.5870e-20
2.6014e+02	8.5090e-20
2.6025e+02	8.4375e-20
2.6036e+02	8.3660e-20
2.6048e+02	8.2880e-20
2.6059e+02	8.2165e-20
2.6070e+02	8.1450e-20
2.6082e+02	8.0670e-20
2.6093e+02	7.9955e-20
2.6104e+02	7.9240e-20
2.6116e+02	7.8460e-20
2.6127e+02	7.7745e-20
2.6138e+02	7.7030e-20
2.6150e+02	7.6250e-20
2.6161e+02	7.5535e-20
2.6172e+02	7.4820e-20
2.6184e+02	7.4040e-20
2.6195e+02	7.3325e-20
2.6206e+02	7.2670e-20
2.6218e+02	7.2010e-20
2.6229e+02	7.1405e-20
2.6240e+02	7.0800e-20
2.6252e+02	7.0140e-20
2.6263e+02	6.9535e-20
2.6274e+02	6.8930e-20
2.6286e+02	6.8270e-20
2.6297e+02	6.7665e-20
2.6308e+02	6.7060e-20
2.6320e+02	6.6400e-20
2.6331e+02	6.5795e-20
2.6342e+02	6.5190e-20
2.6354e+02	6.4530e-20
2.6365e+02	6.3925e-20
2.6376e+02	6.3320e-20
2.6388e+02	6.2660e-20
2.6399e+02	6.2055e-20
2.6410e+02	6.1550e-20
2.6422e+02	6.1010e-20
2.6433e+02	6.0515e-20
2.6444e+02	6.0020e-20
2.6456e+02	5.9480e-20
2.6467e+02	5.8985e-20
2.6478e+02	5.8490e-20
2.6490e+02	5.7950e-20
2.6501e+02	5.7455e-20
2.6512e+02	5.6960e-20
2.6524e+02	5.6420e-20
2.6535e+02	5.5925e-20
2.6546e+02	5.5430e-20
2.6557e+02	5.4935e-20
2.6569e+02	5.4395e-20
2.6580e+02	5.3900e-20
2.6591e+02	5.3405e-20
2.6603e+02	5.2850e-20
2.6614e+02	5.2300e-20
2.6625e+02	5.1750e-20
2.6637e+02	5.1150e-20
2.6648e+02	5.0600e-20
2.6659e+02	5.0050e-20
2.6671e+02	4.9450e-20
2.6682e+02	4.8900e-20
2.6693e+02	4.8350e-20
2.6704e+02	4.7800e-20
2.6716e+02	4.7200e-20
2.6727e+02	4.6650e-20
2.6738e+02	4.6100e-20
2.6750e+02	4.5500e-20
2.6761e+02	4.4950e-20
2.6772e+02	4.4400e-20
2.6783e+02	4.3850e-20
2.6795e+02	4.3250e-20
2.6806e+02	4.2820e-20
2.6817e+02	4.2490e-20
2.6829e+02	4.2130e-20
2.6840e+02	4.1800e-20
2.6851e+02	4.1470e-20
2.6863e+02	4.1110e-20
2.6874e+02	4.0780e-20
2.6885e+02	4.0450e-20
2.6896e+02	4.0120e-20
2.6908e+02	3.9760e-20
2.6919e+02	3.9430e-20
2.6930e+02	3.9100e-20
2.6942e+02	3.8740e-20
2.6953e+02	3.8410e-20
2.6964e+02	3.8080e-20
2.6975e+02	3.7750e-20
2.6987e+02	3.7390e-20
2.6998e+02	3.7060e-20
2.7009e+02	3.6685e-20
2.7020e+02	3.6300e-20
2.7032e+02	3.5880e-20
2.7043e+02	3.5495e-20
2.7054e+02	3.5110e-20
2.7066e+02	3.4690e-20
2.7077e+02	3.4305e-20
2.7088e+02	3.3920e-20
2.7099e+02	3.3535e-20
2.7111e+02	3.3115e-20
2.7122e+02	3.2730e-20
2.7133e+02	3.2345e-20
2.7144e+02	3.1960e-20
2.7156e+02	3.1540e-20
2.7167e+02	3.1155e-20
2.7178e+02	3.0770e-20
2.7190e+02	3.0350e-20
2.7201e+02	2.9975e-20
2.7212e+02	2.9700e-20
2.7223e+02	2.9425e-20
2.7235e+02	2.9125e-20
2.7246e+02	2.8850e-20
2.7257e+02	2.8575e-20
2.7268e+02	2.8300e-20
2.7280e+02	2.8000e-20
2.7291e+02	2.7725e-20
2.7302e+02	2.7450e-20
2.7313e+02	2.7175e-20
2.7325e+02	2.6875e-20
2.7336e+02	2.6600e-20
2.7347e+02	2.6325e-20
2.7358e+02	2.6050e-20
2.7370e+02	2.5750e-20
2.7381e+02	2.5475e-20
2.7392e+02	2.5200e-20
2.7403e+02	0.0000e+00
2.7415e+02	0.0000e+00
2.7426e+02	0.0000e+00
2.7437e+02	0.0000e+00
2.7448e+02	0.0000e+00
2.7460e+02	0.0000e+00
2.7471e+02	0.0000e+00
2.7482e+02	0.0000e+00
2.7493e+02	0.0000e+00
2.7505e+02	0.0000e+00
2.7516e+02	0.0000e+00
2.7527e+02	0.0000e+00
2.7538e+02	0.0000e+00
2.7550e+02	0.0000e+00
2.7561e+02	0.0000e+00
2.7572e+02	0.0000e+00
2.7583e+02	0.0000e+00
2.7595e+02	0.0000e+00
2.7606e+02	0.0000e+00
2.7617e+02	0.0000e+00
2.7628e+02	0.0000e+00
2.7639e+02	0.0000e+00
2.7651e+02	0.0000e+00
2.7662e+02	0.0000e+00
2.7673e+02	0.0000e+00
2.7684e+02	0.0000e+00
2.7696e+02	0.0000e+00
2.7707e+02	0.0000e+00
2.7718e+02	0.0000e+00
2.7729e+02	0.0000e+00
2.7740e+02	0.0000e+00
2.7752e+02	0.0000e+00
2.7763e+02	0.0000e+00
2.7774e+02	0.0000e+00
2.7785e+02	0.0000e+00
2.7797e+02	0.0000e+00
2.7808e+02	0.0000e+00
2.7819e+02	0.0000e+00
2.7830e+02	0.0000e+00
2.7841e+02	0.0000e+00
2.7853e+02	0.0000e+00
2.7864e+02	0.0000e+00
2.7875e+02	0.0000e+00
2.7886e+02	0.0000e+00
2.7898e+02	0.0000e+00
2.7909e+02	0.0000e+00
2.7920e+02	0.0000e+00
2.7931e+02	0.0000e+00
2.7942e+02	0.0000e+00
2.7954e+02	0.0000e+00
2.7965e+02	0.0000e+00
2.7976e+02	0.0000e+00
2.7987e+02	0.0000e+00
2.7998e+02	0.0000e+00
2.8010e+02	0.0000e+00
2.8021e+02	0.0000e+00
2.8032e+02	0.0000e+00
2.8043e+02	0.0000e+00
2.8054e+02	0.0000e+00
2.8066e+02	0.0000e+00
2.8077e+02	0.0000e+00
2.8088e+02	0.0000e+00
2.8099e+02	0.0000e+00
2.8110e+02	0.0000e+00
2.8122e+02	0.0000e+00
2.8133e+02	0.0000e+00
2.8144e+02	0.0000e+00
2.8155e+02	0.0000e+00
2.8166e+02	0.0000e+00
2.8178e+02	0.0000e+00
2.8189e+02	0.0000e+00
2.8200e+02	0.0000e+00
2.8211e+02	0.0000e+00
2.8222e+02	0.0000e+00
2.8234e+02	0.0000e+00
2.8245e+02	0.0000e+00
2.8256e+02	0.0000e+00
2.8267e+02	0.0000e+00
2.8278e+02	0.0000e+00
2.8289e+02	0.0000e+00
2.8301e+02	0.0000e+00
2.8312e+02	0.0000e+00
2.8323e+02	0.0000e+00
2.8334e+02	0.0000e+00
2.8345e+02	0.0000e+00
2.8357e+02	0.0000e+00
2.8368e+02	0.0000e+00
2.8379e+02	0.0000e+00
2.8390e+02	0.0000e+00
2.8401e+02	0.0000e+00
2.8412e+02	0.0000e+00
2.8424e+02	0.0000e+00
2.8435e+02	0.0000e+00
2.8446e+02	0.0000e+00
2.8457e+02	0.0000e+00
2.8468e+02	0.0000e+00
2.8479e+02	0.0000e+00
2.8491e+02	0.0000e+00
2.8502e+02	0.0000e+00
2.8513e+02	0.0000e+00
2.8524e+02	0.0000e+00
2.8535e+02	0.0000e+00
2.8546e+02	0.0000e+00
2.8558e+02	0.0000e+00
2.8569e+02	0.0000e+00
2.8580e+02	0.0000e+00
2.8591e+02	0.0000e+00
2.8602e+02	0.0000e+00
2.8613e+02	0.0000e+00
2.8625e+02	0.0000e+00
2.8636e+02	0.0000e+00
2.8647e+02	0.0000e+00
2.8658e+02	0.0000e+00
2.8669e+02	0.0000e+00
2.8680e+02	0.0000e+00
2.8691e+02	0.0000e+00
2.8703e+02	0.0000e+00
2.8714e+02	0.0000e+00
2.8725e+02	0.0000e+00
2.8736e+02	0.0000e+00
2.8747e+02	0.0000e+00
2.8758e+02	0.0000e+00
2.8770e+02	0.0000e+00
2.8781e+02	0.0000e+00
2.8792e+02	0.0000e+00
2.8803e+02	0.0000e+00
2.8814e+02	0.0000e+00
2.8825e+02	0.0000e+00
2.8836e+02	0.0000e+00
2.8848e+02	0.0000e+00
2.8859e+02	0.0000e+00
2.8870e+02	0.0000e+00
2.8881e+02	0.0000e+00
2.8892e+02	0.0000e+00
2.8903e+02	0.0000e+00
2.8914e+02	0.0000e+00
2.8925e+02	0.0000e+00
2.8937e+02	0.0000e+00
2.8948e+02	0.0000e+00
2.8959e+02	0.0000e+00
2.8970e+02	0.0000e+00
2.8981e+02	0.0000e+00
2.8992e+02	0.0000e+00
2.9003e+02	0.0000e+00
2.9015e+02	0.0000e+00
2.9026e+02	0.0000e+00
2.9037e+02	0.0000e+00
2.9048e+02	0.0000e+00
2.9059e+02	0.0000e+00
2.9070e+02	0.0000e+00
2.9081e+02	0.0000e+00
2.9092e+02	0.0000e+00
2.9104e+02	0.0000e+00
2.9115e+02	0.0000e+00
2.9126e+02	0.0000e+00
2.9137e+02	0.0000e+00
2.9148e+02	0.0000e+00
2.9159e+02	0.0000e+00
2.9170e+02	0.0000e+00
2.9181e+02	0.0000e+00
2.9192e+02	0.0000e+00
2.9204e+02	0.0000e+00
2.9215e+02	0.0000e+00
2.9226e+02	0.0000e+00
2.9237e+02	0.0000e+00
2.9248e+02	0.0000e+00
2.9259e+02	0.0000e+00
2.9270e+02	0.0000e+00
2.9281e+02	0.0000e+00
2.9293e+02	0.0000e+00
2.9304e+02	0.0000e+00
2.9315e+02	0.0000e+00
2.9326e+02	0.0000e+00
2.9337e+02	0.0000e+00
2.9348e+02	0.0000e+00
2.9359e+02	0.0000e+00
2.9370e+02	0.0000e+00
2.9381e+02	0.0000e+00
2.9392e+02	0.0000e+00
2.9404e+02	0.0000e+00
2.9415e+02	0.0000e+00
2.9426e+02	0.0000e+00
2.9437e+02	0.0000e+00
2.9448e+02	0.0000e+00
2.9459e+02	0.0000e+00
2.9470e+02	0.0000e+00
2.9481e+02	0.0000e+00
2.9492e+02	0.0000e+00
2.9503e+02	0.0000e+00
2.9514e+02	0.0000e+00
2.9526e+02	0.0000e+00
2.9537e+02	0.0000e+00
2.9548e+02	0.0000e+00
2.9559e+02	0.0000e+00
2.9570e+02	0.0000e+00
2.9581e+02	0.0000e+00
2.9592e+02	0.0000e+00
2.9603e+02	3.3317e-21
2.9614e+02	3.5946e-21
2.9625e+02	3.8575e-21
2.9636e+02	4.1204e-21
2.9648e+02	4.4072e-21
2.9659e+02	4.6701e-21
2.9670e+02	4.9330e-21
2.9681e+02	5.1959e-21
2.9692e+02	5.4588e-21
2.9703e+02	5.6356e-21
2.9714e+02	5.5828e-21
2.9725e+02	5.5300e-21
2.9736e+02	5.4772e-21
2.9747e+02	5.4244e-21
2.9758e+02	5.3716e-21
2.9769e+02	5.3188e-21
2.9780e+02	5.2660e-21
2.9792e+02	5.2084e-21
2.9803e+02	5.1436e-21
2.9814e+02	5.0468e-21
2.9825e+02	4.9500e-21
2.9836e+02	4.8532e-21
2.9847e+02	4.7564e-21
2.9858e+02	4.6596e-21
2.9869e+02	4.5628e-21
2.9880e+02	4.4660e-21
2.9891e+02	4.3692e-21
2.9902e+02	4.3276e-21
2.9913e+02	4.5344e-21
2.9924e+02	4.7412e-21
2.9935e+02	4.9480e-21
2.9946e+02	5.1548e-21
2.9957e+02	5.3616e-21
2.9969e+02	5.5872e-21
2.9980e+02	5.7940e-21
2.9991e+02	6.0008e-21
3.0002e+02	6.1846e-21
3.0013e+02	6.2649e-21
3.0024e+02	6.3452e-21
3.0035e+02	6.4255e-21
3.0046e+02	6.5058e-21
3.0057e+02	6.5861e-21
3.0068e+02	6.6664e-21
3.0079e+02	6.7467e-21
3.0090e+02	6.8270e-21
3.0101e+02	6.8889e-21
3.0112e+02	6.7668e-21
3.0123e+02	6.6447e-21
3.0134e+02	6.5226e-21
3.0145e+02	6.4005e-21
3.0156e+02	6.2784e-21
3.0167e+02	6.1563e-21
3.0178e+02	6.0342e-21
3.0190e+02	5.9010e-21
3.0201e+02	5.8246e-21
3.0212e+02	6.2052e-21
3.0223e+02	6.5858e-21
3.0234e+02	6.9664e-21
3.0245e+02	7.3470e-21
3.0256e+02	7.7276e-21
3.0267e+02	8.1082e-21
3.0278e+02	8.4888e-21
3.0289e+02	8.8694e-21
3.0300e+02	9.2500e-21
3.0311e+02	9.3765e-21
3.0322e+02	9.5030e-21
3.0333e+02	9.6295e-21
3.0344e+02	9.7560e-21
3.0355e+02	9.8825e-21
3.0366e+02	1.0009e-20
3.0377e+02	1.0135e-20
3.0388e+02	1.0262e-20
3.0399e+02	1.0389e-20
3.0410e+02	1.0930e-20
3.0421e+02	1.1513e-20
3.0432e+02	1.2096e-20
3.0443e+02	1.2679e-20
3.0454e+02	1.3262e-20
3.0465e+02	1.3845e-20
3.0476e+02	1.4428e-20
3.0487e+02	1.5011e-20
3.0498e+02	1.5594e-20
3.0509e+02	1.5448e-20
3.0520e+02	1.5140e-20
3.0531e+02	1.4832e-20
3.0542e+02	1.4524e-20
3.0553e+02	1.4216e-20
3.0564e+02	1.3908e-20
3.0575e+02	1.3600e-20
3.0586e+02	1.3292e-20
3.0597e+02	1.2984e-20
3.0608e+02	1.2601e-20
3.0619e+02	1.2189e-20
3.0630e+02	1.1778e-20
3.0641e+02	1.1367e-20
3.0652e+02	1.0955e-20
3.0663e+02	1.0544e-20
3.0674e+02	1.0132e-20
3.0685e+02	9.7210e-21
3.0696e+02	9.3096e-21
3.0707e+02	9.5338e-21
3.0718e+02	1.0121e-20
3.0729e+02	1.0709e-20
3.0740e+02	1.1296e-20
3.0751e+02	1.1883e-20
3.0762e+02	1.2471e-20
3.0773e+02	1.3058e-20
3.0784e+02	1.3646e-20
3.0795e+02	1.4233e-20
3.0806e+02	1.4836e-20
3.0817e+02	1.5452e-20
3.0828e+02	1.6068e-20
3.0839e+02	1.6684e-20
3.0850e+02	1.7300e-20
3.0861e+02	1.7916e-20
3.0872e+02	1.8532e-20
3.0883e+02	1.9148e-20
3.0894e+02	1.9764e-20
3.0905e+02	1.9850e-20
3.0916e+02	1.9300e-20
3.0927e+02	1.8750e-20
3.0938e+02	1.8200e-20
3.0949e+02	1.7650e-20
3.0960e+02	1.7100e-20
3.0971e+02	1.6550e-20
3.0982e+02	1.6000e-20
3.0993e+02	1.5450e-20
3.1004e+02	1.5324e-20
3.1015e+02	1.5940e-20
3.1026e+02	1.6556e-20
3.1037e+02	1.7172e-20
3.1048e+02	1.7788e-20
3.1059e+02	1.8404e-20
3.1070e+02	1.9020e-20
3.1081e+02	1.9636e-20
3.1092e+02	2.0252e-20
3.1103e+02	2.0805e-20
3.1114e+02	2.1190e-20
3.1125e+02	2.1575e-20
3.1136e+02	2.1960e-20
3.1147e+02	2.2345e-20
3.1158e+02	2.2730e-20
3.1169e+02	2.3115e-20
3.1180e+02	2.3500e-20
3.1191e+02	2.3885e-20
3.1202e+02	2.4166e-20
3.1213e+02	2.3979e-20
3.1224e+02	2.3792e-20
3.1235e+02	2.3605e-20
3.1246e+02	2.3418e-20
3.1257e+02	2.3231e-20
3.1267e+02	2.3061e-20
3.1278e+02	2.2874e-20
